# Raman CLI Tools version 0.1.0 (git commit 6e50c5d).
# ---
# preprocessor: arguments
# filepath: /var/home/nluetts/ownCloud/RAMAN-PC_LightField-Data/2024-08-22_pentane-in-Ne/2024-08-22_1145_pentane_1p6mbar_d1mm_P10W-GLR_sw100mum_gt500_566nm_6x10s.csv
# comment: '#'
# delimiter: ','
# ---
# transformation: ReshapeTransform
# rows: 1340
# ---
# transformation: DespikeTransform
# siglim: 30.0
# flim: 30.0
# ---
# transformation: AverageTransform
# ---
# transformation: OffsetTransform
# offset: 0.05
# percentile: true
# target_frames: null
# ---
# transformation: RamanShiftTransform
# wavelength: 532.2
# refractive_index: 1.000264
# correction: 0.0
# ---
# transformation: CountConversionTransform
# exposure: 10.0
# conversion_factor: 1.42857
# ---
-29.537229311589524,-0.012716779999634869
-27.702381443861796,0.02543867806800613
-25.86790273358363,0.42618359485036994
-24.03379307338296,0.6362228979450072
-22.200052355935,0.9990709011820068
-20.366680473951345,1.412983160827752
-18.533677320194496,1.5787851723748492
-16.701042787456053,2.425960204045701
-14.868776768585816,2.9295698612144725
-13.036879156451757,3.7327677241163157
-11.205349843987328,7.154848159700212
-9.374188724155067,14.344435683234046
-7.543395689957522,46.018501174203394
-5.712970634437251,221.3539602418562
-3.8829134506950016,732.4538214116374
-2.0532240318497075,1307.7455500659664
-0.22390227107849425,1465.5985735470115
1.6050519384124164,1432.110124030725
3.4336387033513365,1229.5956097846538
5.261858130466577,598.910256794516
7.089710326406437,101.34611846699481
8.91719539779739,13.996555317707388
10.74431345121863,5.0900981627549555
12.571064593212983,3.296133183918321
14.397448930283264,2.6451030526365673
16.223466568874098,2.147181372605591
18.049117615411923,1.399783140557794
19.874402176264987,1.0228779307756437
21.699320357772443,0.6202442326213641
23.52387226622252,0.6843242731055651
25.34805800787799,0.49895333373897194
27.17187768893253,0.3646929205203139
28.99533141556889,0.13438751247906683
30.818419293904373,-0.044804826097343695
32.64114143004171,0.10883355241931356
34.4634979300182,0.38419548263095665
36.285488899842,-0.2305635321201732
38.107114445470394,0.16655150763703386
39.92837467283518,0.11532801631744781
41.74926968781724,-0.16661832099548105
43.5697995962611,-0.32048410240116243
45.38996450396398,-0.15386321466244213
47.20976451668676,-0.21160433745340343
49.02919974015029,-0.1731655304696629
50.848270280031784,-0.3848894294339369
52.66697624197572,-0.3849665775142744
54.485317731568394,-0.37862633860271755
56.30329485436335,-0.23749122129926048
58.120907715892336,-0.2503787475897255
59.938156421625244,-0.30822020448500603
61.755041076984696,-0.30185941648150383
63.5715617873824,-0.14132420357779885
65.38771865815006,0.07067625661180256
67.20351179461574,1.1953106199479258
69.0189413020493,2.7189121384730783
70.83400728567332,5.876083608536879
72.64870985069221,10.995749517642253
74.46304910223763,15.51289954769399
76.27702514543397,22.399142100654526
78.09063808534742,29.66775432288291
79.90388802700416,35.208148912834005
81.71677507539039,37.28781405807236
83.52929933545589,42.426354916337814
85.34146091210684,40.55457598784886
87.15325991021305,36.93021127874459
88.96469643459338,35.15964829600144
90.77577059003761,35.09580800141954
92.5864824813028,37.50660256888652
94.3968322130696,35.27099363877636
96.20681989002235,32.13190658909268
98.01644561677986,27.482659425642094
99.82570949792824,26.482019217825805
101.63461163800635,27.506553663978174
103.44315214152024,27.737879351388464
105.25133111294329,28.83405959510598
107.05914865668704,29.42075124245022
108.86660487713391,29.03926971185309
110.67369987862998,26.791465393669036
112.48043376547764,22.60517454542777
114.28680664194661,22.235016978643344
116.092818612252,24.313506029535365
117.89846978057987,25.171413050209193
119.7037602510726,26.06198038268313
121.50869012782528,25.472399655192646
123.31325951491122,24.7597209097535
125.11746851634551,23.846258582397393
126.92131723611053,22.29847280838938
128.72480577815588,18.718411368476474
130.52793424637665,17.971451000464246
132.3307027446388,17.53488695166444
134.1331113767647,16.39894273346913
135.9351602465403,16.66770819518318
137.73684945770063,15.479321688805443
139.53817911395163,15.508323153992968
141.3391493189629,14.733903453452731
143.13976017635315,12.76026610282431
144.94001178970092,10.520083405307416
146.73990426255585,10.133192232809293
148.53943769842385,10.62803289146572
150.33861220076352,10.085349537629172
152.13742787300805,9.808418090806347
153.93588481853243,9.914187824834013
155.73398314068618,10.17575046479378
157.53172294277513,10.067433791798102
159.3291043280652,8.900840644021507
161.1261273997859,8.935082848321358
162.9227922611194,8.48872195518694
164.71909901520795,8.52289463920155
166.51504776517191,8.147744035894181
168.3106386140699,8.350827571453431
170.10587166493494,9.327490822180527
171.9007470207529,10.356553142459122
173.69526478446957,10.306596027568721
175.48942505900533,9.645253713234531
177.28322794721868,9.347937133259551
179.07667355195724,8.601555032039904
180.86976197599589,7.529486702540487
182.66249332209492,6.476518036826824
184.45486769296377,6.354110974948179
186.24688519127912,6.218631480707937
188.038545919674,5.737911187189218
189.82984998074502,5.224427875564149
191.62079747704524,4.215558292273555
193.41138851109858,4.144712157948914
195.20162318536347,4.008656178610232
196.99150160229837,3.5726516861328106
198.781023864289,3.4690309042810688
200.57019007369925,3.6197279403293035
202.359000332853,3.052918445057285
204.14745474402315,3.1057228518959206
205.9355534094537,2.4537481056357895
207.7232964313484,2.7087979305540277
209.51068391187113,2.6440514864103735
211.29771595314938,2.690286083805928
213.08439265726338,2.481825272548464
214.8707141262678,2.416994596475934
216.6566804621593,1.9862498651838727
218.44229176691252,2.3068605204781902
220.22754814245494,1.9805033720379333
222.01244969067398,1.8370695404920254
223.79699651343165,1.9289794620146696
225.58118871252444,2.092868154069991
227.36502638973798,1.99516136614896
229.1485096468033,2.2245562547067017
230.93163858541504,2.2838952608597807
232.71441330723158,1.6363531550698454
234.4968339138712,1.8003460444248671
236.27890050690488,1.5322351123976794
238.0606131878855,1.8010613105168283
239.8419720583113,1.572147493336269
241.6229772196406,1.4021098952328475
243.40362877329162,1.6972830435797197
245.18392682067173,1.9532462192750675
246.96387146309738,1.8684083544941428
248.7434628018995,2.065492864470265
250.52270093833636,2.0921365430888765
252.30158597365164,2.0203948285592213
254.08011800901264,1.7977209368693694
255.85829714559395,2.165568011761238
257.63612348450107,2.6123245184320503
259.4135971268104,2.9542192748160856
261.1907181735655,4.071065169269273
262.9674867257555,4.6366809170823835
264.7439028843478,5.583513506276597
266.51996675026226,5.972259325438123
268.29567842437524,6.256015895967158
270.0710380075413,6.138947014160738
271.8460456005713,5.660258507839126
273.6207013042107,4.4054879309212245
275.39500521921576,4.169601610796274
277.16895744625555,3.8217961585012743
278.9425580859955,2.8027674291813853
280.7158072390501,2.533519553188694
282.48870500598645,1.5006673663992407
284.2612514873464,1.8630395731500253
286.0334467836353,1.4880931889933575
287.8052909953003,1.7320621688434994
289.57678422277405,1.7258182179792085
291.3479265664419,2.029226368267154
293.1187181266456,1.871475455420838
294.8891590036941,1.852073096200398
296.6592492978599,1.8788091353169698
298.42898910937214,1.945117367514491
300.1983785384196,2.380767483914919
301.9674176851623,2.3548539333225795
303.73610664971625,2.6060264734377943
305.50444553216516,2.7913099080852697
307.2724344325414,3.5838801188306424
309.0400734508558,3.8552490487090623
310.8073626870609,4.33801351465444
312.574302241102,4.953050164404055
314.34089221285154,5.713648180646202
316.10713270216394,7.353235392501173
317.87302380885353,8.332672259392407
319.63856563269826,11.797591007655809
321.40375827342524,16.586000394758198
323.1686018307432,26.72533796924472
324.93309640430664,37.5895256519373
326.6972420937406,46.51333824922948
328.4610389986304,51.20654481461637
330.2244872185211,50.217480705038774
331.98758685292535,39.11503277875446
333.7503380013155,26.134801339549895
335.51274076312046,17.43326582363299
337.27479523773616,12.542776811915925
339.0365015245261,10.233590216171345
340.79785972279893,9.427363443435592
342.55886993185266,8.50817037305844
344.319532250916,8.311023055725704
346.0798467792141,8.001105733793548
347.8398136159067,7.876711911131552
349.59943286012793,7.049325416879049
351.3587046109611,7.468587125233535
353.11762896747865,6.926061102855385
354.8762060286875,7.405182496353224
356.63443589357263,6.922159842824893
358.39231866108656,6.425669864397826
360.1498544301198,5.902425868253914
361.90704329955184,5.398897063209365
363.66388536821154,4.450153773031148
365.4203807348912,3.9129222314964567
367.1765294983467,4.897101531702103
368.9323317572978,4.798378575944961
370.68778761042756,5.078510493701958
372.44289715637206,5.9637731437195685
374.19766049374533,6.829435131738568
375.95207772111786,8.573396698724085
377.7061489370129,9.546354483541254
379.45987423992455,11.27823149861398
381.21325372831774,12.46506990551531
382.96628750061024,13.938603034648537
384.7189756551761,16.3181720405059
386.4713182903713,20.569878240222696
388.2233155044935,28.35992504521103
389.97496739582215,42.41503921507405
391.72627406258596,71.44081820448345
393.4772356029771,107.0757184554714
395.22785211515867,138.28534450313796
396.97812369725017,159.62684113593372
398.7280504473348,155.6306609875455
400.4776324634629,128.50279441473785
402.22686984364844,83.15269061425495
403.9757626858509,48.08660180305436
405.72431108801885,31.70590323462408
407.4725151480499,25.557948604332747
409.2203749637945,21.21680760570996
410.9678906330883,18.72361344499264
412.71506225371627,15.13411629650912
414.46188992342684,13.921318604193845
416.2083737399359,12.387334849809418
417.95451380091555,10.638899171619498
419.7003102040088,8.615728825691242
421.4457630468187,7.200128947971926
423.1908724269155,5.6769846617854745
424.9356384418187,5.263446525827761
426.68006118902207,4.535348050903371
428.4241407659869,4.188328121449937
430.1678772701235,3.693948803863794
431.9112707988238,3.4938778674713933
433.65432144942184,3.7221804444302546
435.397029319226,3.307767592019908
437.1393945055156,3.710250255471612
438.8814171055118,3.7913620849764835
440.6230972164248,4.100300052164334
442.364434935414,4.241830439310911
444.10543035959864,4.4303335443756255
445.84608358606533,5.235659097541979
447.5863947118642,5.853558005921977
449.32636383401285,7.189286912770488
451.0659910494923,7.74744238672279
452.8052764552291,8.252144338251828
454.54422014814253,9.300584868968944
456.28282222509006,11.403173361537267
458.02108278291087,13.305196993685124
459.7590019183934,15.040108890579521
461.49657972828953,20.361860377921893
463.23381630933676,24.590834990135942
464.97071175821065,27.974964796247484
466.707266171554,31.635926343337932
468.4434796459843,32.20669624010824
470.17935227807897,30.727402407756752
471.9148841643753,24.769628882212654
473.65007540137066,19.118859510130413
475.38492608554066,13.486049078268104
477.1194363133027,10.66986122909686
478.8536061810631,8.855165842332376
480.58743578516663,7.255123092474798
482.32092522194694,6.300675023134999
484.0540745876759,5.581500417160612
485.78688397860725,4.404122309586519
487.51935349095464,3.7583827570793327
489.25148322088813,3.2134412513535233
490.983273264556,2.9917143569120572
492.71472371805174,2.3722747239659023
494.44583467744013,1.7458512468387257
496.1766062387675,1.4562849869138446
497.9070384980074,1.402623453663871
499.6371315511336,1.396153727460032
501.3668854940579,0.9916658441117133
503.0963004226702,0.7354609808167593
504.8253764328242,0.9650599372319639
506.55411362033357,0.6007494193720974
508.2825120809646,0.6616289882702248
510.0105719104726,0.12154750347725515
511.738293204555,0.621364513360899
513.4656760588834,0.43909354228239245
515.1927205690934,0.46620599164102083
516.9194268307766,0.09461104838624546
518.6457949394993,0.0473147893759267
520.3718249907915,0.7369031510268225
522.0975170801287,0.2704761301507568
523.8228713029715,0.27052909139167636
525.5478877547444,-0.033822757301683354
527.2725665308246,0
528.996907726553,0.24361920881936627
530.7209114372449,0.26397246930878704
532.4445777581756,0.16247639058446067
534.167906784584,0.2573046312227881
535.8908986116656,-0.08126999458298885
537.6135533345865,0.3386912367890283
539.3358710484948,0.149053301487713
541.0578518484622,0.18974131523092203
542.779495829564,0.1016670174731466
544.5008030868207,0.3660728542394434
546.2217737152207,0.04068271704253718
547.9424078097154,0.2170169246427712
549.6627054652166,-0.16957762735723703
551.3826667766176,-0.020353294314463657
553.1022918387464,-0.2510730432827519
554.8215807464275,0.6040505258022536
556.5405335944341,0.0746725247096062
558.2591504774962,-0.31911769819560626
559.9774314903252,-0.40746391958161193
561.6953767275857,-0.11547067314427838
563.4129862839018,0.1019057984107276
565.1302602538759,0.013590094789637188
566.8471987320744,-0.1631130009655409
568.5638018130234,0.08837013679462861
570.2800695911977,-0.06119127688590196
571.996002161062,-0.21081112417913933
573.7115996170405,0.013603374137177889
575.4268620535064,0.14286332418374922
577.1417895648187,0
578.8563822452743,-0.08847374391558085
580.57064018917,0.027228005647038134
582.2845634907268,-0.11574161610694102
583.9981522441758,-0.20428978354507765
585.7114065436651,-0.006810988688408575
587.4243264833499,0.16349563368191627
589.1369121573198,-0.12945930433311126
590.8491636596389,0.14992949988665996
592.5610810843459,-0.42942734625734885
594.2726645254253,0.06135873339637829
595.9839140768429,0.013637934298783173
597.6948298325211,-0.13640594798927158
599.4054118863569,-0.10914604470902811
601.1156603321998,-0.006822958333981695
602.8255752638559,0.3207415838610856
604.5351567751347,0.38906033130826984
606.2444049597659,0.07509645903616527
607.9533199114682,0.2594747137281457
609.6619017239202,0.3824583394105755
611.3701504907642,0.10246416918153818
613.0780663056099,0.38260746525416733
614.7856492620306,0.22550905948588892
616.4928994535666,0.1572036132372274
618.1998169737257,0.24610578097048702
619.9064019159574,0.2256409262586873
621.6126543737186,0.2393627636169046
623.3185744403861,0.5335409449839026
625.0241622093405,0.5610112895771842
626.7294177739037,0.30793202119103624
628.4343412273656,0.3832789330110523
630.1389326629937,0.18483119088755587
631.8431921739977,0.08901012651549513
633.5471198535869,0.5136199575171828
635.2507157948945,0.20548798609210991
636.9539800910537,0.2603354584647513
638.656912835143,-0.054818134747728564
640.3595141202155,0.28785123000202323
642.0617840392881,0.07540428203185526
643.7637226853266,0.1234128400350442
645.4653301512967,0.2537313182703079
647.1666065300916,0.6653169517615621
648.8675519146007,0.5488217794024289
650.5681663976553,0.665575877345942
652.2684500720684,0.7000200705685332
653.9684030306096,0.761934735751029
655.6680253660119,0.41193672443514084
657.3673171709864,0.6523600024478944
659.06627853819,0.5425943458907145
660.7649095602683,0.5701783329754649
662.4632103298089,0.7008373309231323
664.161180939385,0.5497832099913038
665.8588214815222,0.27494504680249165
667.55613204871,0.25437360732645053
669.253112733423,0.48134090867402385
670.9497636280745,0.18569614973877482
672.6460848250591,0.261400928426129
674.3420764167355,-0.04816215999612882
676.0377384954292,0.08946139131990645
677.7330711534149,0.3854470225965172
679.4280744829678,0.1721079937920566
681.1227485762932,0.20656971306104677
682.8170935255788,-0.013773989194875103
684.5111094229758,0.42707659875004905
686.2047963605987,0.1240140604220816
687.8981544305262,-0.06891007954042416
689.5911837248112,0.2619091491291497
691.2838843354665,0.26885368576864493
692.9762563544687,0.33096108558257264
694.6682998737689,0.29654352847240834
696.3600149852673,0.3586803887317753
698.0514017808459,0.5105288552491032
699.7424603523468,0.04830264271498505
701.4331907915755,0.3657909809711784
703.123593190305,0.49702002181953914
704.8136676402752,0.47640327157493434
706.5034142331975,0.5317415770586417
708.1928330607354,0.6907074438924001
709.8819242145239,0.7668339824149246
711.5706877861683,0.7393437013482679
713.2591238672378,0.7118427155329341
714.9472325492728,0.47695798589202126
716.6350139237586,0.9817560465665166
718.322468082181,1.1409940605920952
720.0095951159562,1.1965469237788007
721.69639511649,1.3697238139402395
723.3828681751405,1.6121591583215904
725.0690143832478,1.536346369573653
726.7548338321012,2.5195426296469154
728.4403266129607,3.143115468648044
730.1254928170572,3.545345732881346
731.8103325355853,4.83423987214086
733.494845859718,4.551161818803516
735.179032880566,4.3996158730019665
736.8628936892186,3.8599381882823276
738.5464283767429,4.047828602011962
740.2296370341666,4.714137937456217
741.9125197524766,4.930001738523143
743.5950766226275,4.806122073758473
745.2773077355558,5.625569586923431
746.9592131821325,6.285761831309818
748.6407930532248,6.7727276403057495
750.3220474396526,7.627734154827464
752.0029764322069,9.63543614032827
753.6835801216348,11.66474478367312
755.3638585986619,14.28513312926734
757.0438119539808,19.247332993159112
758.7234402782369,23.343035914653388
760.4027436620539,32.08203843907817
762.081722196019,40.324019587607076
763.7603759706757,49.82738486771101
765.4387050765567,53.45243207164267
767.1167096041438,51.40437043866731
768.7943896438786,40.56388897122823
770.4717452861921,29.51746644629275
772.1487766214678,19.468734649649388
773.825483740042,13.612654701242022
775.5018667322545,10.281072652896896
777.1779256883689,7.95074792548869
778.8536606986523,7.193266372162155
780.5290718533101,6.024567329032534
782.2041592425259,5.134062709939463
783.8789229564612,5.162924906368584
785.5533630852233,4.913043726791838
787.227479718901,4.649125301249417
788.9012729475434,4.343275336195923
790.5747428611593,3.486448143780179
792.2478895497395,4.205468664237214
793.9207131032312,3.794721126689905
795.5932136115559,4.311747396042554
797.2653911645881,4.124166380107046
798.9372458521839,3.6294088613572253
800.6087777641523,3.811615128958949
802.279986990291,3.665722147065084
803.9508736203402,4.043548319565027
805.621437744014,4.0792539895007796
807.2916794510049,4.932378773632394
808.9615988309547,5.457409782413133
810.6311959734866,6.30414035440828
812.3004709681841,6.913523215652666
813.9694239045906,7.669968003652481
815.6380548722276,8.160965920545877
817.306363960584,9.673344724636989
818.974351259116,10.262859133404246
820.642016857225,11.139484144005912
822.3093608443054,13.150205856985536
823.976383309715,16.043685225993475
825.6430843427609,18.714241041612816
827.3094640327354,22.835356323289485
828.9755224688911,30.61410215506856
830.6412597404513,43.726851177103626
832.3066759365956,63.10856647973662
833.9717711464857,84.53706887293332
835.6365454592393,103.59066119984601
837.3009989639415,115.4306077065327
838.9651317496485,117.40219270634594
840.6289439053872,100.17193062952347
842.2924355201336,86.96848599680138
843.955606682871,76.6435534338128
845.6184574824953,74.88291047445024
847.2809880079027,73.71818089558914
848.9431983479635,63.11092963286754
850.6050885914904,57.36547268967425
852.2666588272846,49.356448271004815
853.9279091440931,45.0179836203327
855.5888396306517,47.76661010234512
857.2494503756566,51.21898128358722
858.90974146776,56.907659487531944
860.5697129955961,66.09926232744448
862.2293650477627,73.1851167217954
863.8886977128102,78.8742675805526
865.5477110792818,79.95856184962592
867.2064052356736,73.83942306146366
868.8647802704414,69.35036062941411
870.522836272023,62.347103197906016
872.1805733288198,58.40314177192117
873.8379915291931,52.61306924994754
875.4950909614824,46.1517975032633
877.1518717139837,41.71645896641786
878.8083338749747,36.41998488638743
880.4644775326822,33.8200279581764
882.1203027753256,29.274043699991157
883.7758096910555,25.7765433384446
885.4309983680187,24.780412539666365
887.0858688943291,22.33838924444892
888.7404213580535,20.565424214466724
890.394655847226,19.052773354990734
892.0485724498769,18.167463978633275
893.702171253964,16.0398373611833
895.3554523474412,15.238303185252109
897.008415818208,14.782370439131075
898.6610617541639,15.583075189677047
900.3133902431357,14.999913942992455
901.9654013729463,14.296448961248919
903.6170952313789,14.419296845900933
905.2684719061803,14.655249981749009
906.9195314850678,15.357750183950627
908.5702740557375,14.639672394271596
910.2206997058232,13.97788001945704
911.8708085229626,13.796701910381774
913.5206005947351,13.466921276091565
915.1700760086982,12.599364937693784
916.8192348523733,12.39658861565734
918.4680772132631,11.974345659419454
920.1166031788127,11.09184433158352
921.7648128364524,10.230242934274488
923.412706273587,10.104745884394053
925.060283577574,10.127932004734149
926.7075448357346,9.72609676541273
928.3544901353789,8.544736191006788
930.0011195637775,7.844807068909944
931.6474332081496,7.584059163120434
933.2934311557108,6.784426682934772
934.9391134936296,6.261021476754747
936.5844803090272,6.21967011040656
938.2295316890392,5.5682749786725365
939.8742677207103,5.427448427858246
941.5186884911037,4.931764395685063
943.1627940872204,4.521059136460414
944.8065845960433,3.861738724199516
946.4500601045153,4.217486075887234
948.0932206995503,3.8703205216636842
949.7360664680294,3.3951701037253357
951.3785974968047,3.921533443805903
953.0208138726916,3.176197982054055
954.6627156824877,3.0133466076324167
956.3043030129359,3.40488092679941
957.9455759507608,3.4766298150958135
959.5865345826618,3.719070824495339
961.2271789952799,3.392612837130387
962.8675092752634,3.4999688547179617
964.5075255091988,3.8279345227176473
966.1472277836472,3.700570729791579
967.7866161851441,4.13546768980902
969.4256908001815,4.385431570443698
971.0644517152477,4.599888074749489
972.702899016762,4.643500056213742
974.3410327911251,4.345210300154902
975.9788531247202,5.165377552105013
977.6163601039009,5.786329829361953
979.2535538149481,6.400392060582937
980.8904343441683,8.440438727353882
982.5270017777916,10.081979256369706
984.1632562020335,11.838250952686867
985.7991977030841,14.943300790807196
987.4348263670935,17.699961648682454
989.0701422801753,20.978572572669705
990.7051455284287,23.05943160927648
992.3398361979018,23.856191636321956
993.9742143746212,22.882618769460798
995.6082801445878,21.651595425741533
997.2420335937514,18.85591628907304
998.8754748080551,15.166197594122162
1000.5086038733978,13.811522777787506
1002.1414208756348,12.820800309833995
1003.7739259006111,14.374334535802115
1005.4061190341381,14.827481907247142
1007.0380003619805,15.202145232745217
1008.6695699698846,15.95600437314005
1010.3008279435605,19.52855799510531
1011.931774368689,21.36388726505411
1013.5624093309111,25.074801872286354
1015.1927329158493,29.16647586366209
1016.8227452090936,32.12862332530249
1018.4524462961867,34.26848308402824
1020.0818362626604,34.69039391489193
1021.710915194003,38.98042213799061
1023.3396831756659,45.80106764066884
1024.96814029309,52.8321179202184
1026.59628663168,60.374705871448285
1028.224122276782,61.604848662741546
1029.8516473137424,58.447586933420396
1031.4788618278637,55.02378667662939
1033.1057659044197,55.077319915339245
1034.7323596286508,60.30320092174902
1036.3586430857654,64.02428155324219
1037.9846163609495,64.5245007019467
1039.6102795393388,57.854150896206896
1041.2356327060538,46.18445827445316
1042.8606759461934,34.06511004253654
1044.485409344802,26.96138453565141
1046.109832986899,25.644777647490574
1047.733946957492,24.773123714318043
1049.3577513415198,25.467716875102035
1050.981246223929,24.451943741995336
1052.6044316896257,24.30563776411269
1054.2273078234616,24.79201764823548
1055.8498747102772,25.738846005647368
1057.4721324348807,26.664454917839432
1059.094081082058,26.568814450317323
1060.7157207365337,27.804348481765402
1062.3370514830394,28.910803854001344
1063.9580734062524,29.247441508856184
1065.5787865908237,31.240172644774756
1067.1991911213618,30.792445479042005
1068.8192870824746,31.677026809039727
1070.4390745587225,31.510163848158054
1072.0585536346155,31.797172204012607
1073.6777243946667,32.60317157601935
1075.2965869233317,32.38592805006638
1076.9151413050583,32.73814726711574
1078.5333876242364,31.879079445851744
1080.1513259652518,30.673497174680698
1081.7689564124469,29.676648026399292
1083.386279050121,28.946370941202908
1085.003293962576,29.457021562787332
1086.6200012340564,27.095222836654806
1088.236400948774,25.36058271684289
1089.852493190922,24.181255102105286
1091.4682780446606,22.878706653873028
1093.0837555941216,21.770687499147694
1094.698925923404,19.86031935970508
1096.3137891165627,18.903046938769656
1097.9283452576383,17.29495155922966
1099.542594430646,16.018763102165114
1101.1565367195608,14.734858404527447
1102.770172208318,13.862656357536794
1104.3835009808272,11.775010307602187
1105.9965231209796,11.02489358445076
1107.609238712638,9.862064349810577
1109.2216478396028,9.357353383155777
1110.8337505856816,9.207127146636598
1112.4455470346354,9.245075088240785
1114.0570372701914,8.573413240934848
1115.6682213760416,8.777830235986265
1117.279099435866,7.910240566252408
1118.8896715333021,8.701468437965072
1120.499937751957,8.30456027068509
1122.1098981754137,8.813493197874404
1123.7195528872105,8.177227236485171
1125.3289019708823,9.447651042228735
1126.9379455098954,9.434940790494883
1128.5466835877191,10.466721320938818
1130.1551162877795,11.404580430136138
1131.7632436934625,12.7563984237721
1133.3710658881503,15.821517101385107
1134.9785829551745,19.301559004713845
1136.5857949778297,25.265954435695647
1138.1927020394003,32.445318026768135
1139.799304223123,41.69012169722352
1141.4056016122204,50.00131575054039
1143.011594289874,54.84985378917593
1144.617282339234,54.54050117172446
1146.2226658434315,47.442155484776734
1147.8277448855542,34.64872060539952
1149.4325195486642,21.12329479711453
1151.0369899158059,14.560019211693856
1152.6411560699685,11.936824275807211
1154.2450180941269,10.738630885774631
1155.848576071227,10.84254308805633
1157.451830084193,11.092059215385216
1159.0547802158833,11.567338025064052
1160.6574265491638,11.940862244648445
1162.2597691668639,12.518434472613524
1163.861808151762,14.050399345089726
1165.4635435866262,15.663080870576897
1167.0649755541908,16.46028097642047
1168.6661041371585,16.18645887557584
1170.2669294181876,15.220049096573973
1171.8674514799402,12.984694647762018
1173.4676704050166,10.187004158934947
1175.0675862760029,8.54061650362241
1176.6671991754408,6.382967326619878
1178.2665091858655,6.092328029884021
1179.8655163897715,6.63350277598199
1181.464220869614,6.3063053601917565
1183.0626227078187,6.482707611639823
1184.6607219868004,6.389012375084053
1186.2585187889301,6.054278683075493
1187.856013196543,5.463760695026588
1189.4532052919592,5.282147890874927
1191.0500951574588,4.939706390840064
1192.6466828752968,4.326715311237182
1194.2429685276952,3.698871956384106
1195.838952196847,3.509475204934942
1197.4346339649162,3.641769356083017
1199.0300139140338,3.5400598352376633
1200.6250921263093,3.635831680842307
1202.2198686838228,3.1316504644680765
1203.8143436686037,3.0736961304315478
1205.4085171626884,3.3743854109109925
1207.002389248041,3.411628930839712
1208.595960006629,3.448886360778222
1210.1892295203759,3.537424727967026
1211.7821978711806,3.860404240461653
1213.374865140901,3.311636716003598
1214.9672314113884,3.3195906656023384
1216.5592967644359,3.3348768512204683
1218.151061281836,3.372160998250931
1219.7425250453166,3.8420570965192615
1221.3336881366229,4.077456819861412
1222.9245506374207,3.630795784241882
1224.5151126293867,3.9909617097033423
1226.1053741941391,4.167820707547937
1227.6953354132816,4.344746312822385
1229.2849963683889,4.264821573848698
1230.874357141003,4.3904388094878515
1232.4634178126296,4.516103269176486
1234.052178464756,5.111872171611595
1235.6406391788369,5.369948403934926
1237.2288000362905,4.8492955625958505
1238.8166611185063,5.7688115614473725
1240.4042225068658,6.210911988061735
1241.991484282693,5.837153737054033
1243.5784465273007,6.441198630498995
1245.165109321958,5.376032832151582
1246.751472747916,5.671276953332308
1248.3375368863856,5.664989895014679
1249.9233018185669,5.879455707524618
1251.5087676256164,6.086642242715682
1253.0939343886578,6.37488088016924
1254.6788021887928,5.949047709065221
1256.2633711071053,6.509839157288777
1257.8476412246134,6.7172997285115805
1259.4316126223537,8.125634623050681
1261.0152853813004,9.0924059854715
1262.5986595824031,9.97110595773919
1264.1817353065924,11.012299152758194
1265.764512634763,11.56730557205445
1267.3469916477875,13.405561169494877
1268.9291724264845,12.633693338954254
1270.5110550516863,12.909007647689538
1272.0926396041602,12.859794576797565
1273.6739261646555,13.8067753821185
1275.2549148138921,13.801996080217888
1276.8356056325647,15.13338109094948
1278.4159987013456,16.33974705568595
1279.9960941008462,16.26897580942065
1281.575891911688,18.45838782316338
1283.1553922144415,18.26239636008401
1284.7345950896492,20.283057759445267
1286.3135006178416,20.878115927999932
1287.892108879495,22.530435292760014
1289.4704199550677,23.007846359577748
1291.0484339249956,25.84433216144111
1292.6261508696755,26.167227465385118
1294.2035708694816,27.688628759996302
1295.7806940047667,28.152567991001543
1297.3575203558323,29.06069409993882
1298.9340500029732,31.205231156246057
1300.5102830264398,30.715101159791075
1302.0862195064542,32.01665137738429
1303.6618595232305,29.70465985596057
1305.2372031569216,30.628739826533238
1306.8122504876835,30.02699731187314
1308.3870015956256,31.151551995779293
1309.9614565608238,30.386628116438192
1311.5356154633325,29.828972410000006
1313.1094783831843,26.70580591579585
1314.6830454003793,27.84540726031498
1316.256316594877,27.01252740026777
1317.8292920466158,24.87370456968296
1319.4019718355116,23.980592167565238
1320.9743560414518,23.050037086502556
1322.546444744276,20.998329382617076
1324.1182380238097,19.198262675331673
1325.6897359598597,19.07564005980088
1327.2609386321897,17.54932171781889
1328.831846120523,16.007572628014582
1330.4024585045868,15.38650176827547
1331.9727758640645,13.977521430274102
1333.5427982785886,14.641621298037476
1335.1125258278028,13.09816368154231
1336.6819585912917,11.992795703253226
1338.2510966486157,12.41149101123321
1339.8199400793308,11.104754804723576
1341.3884889629383,11.709421321981791
1342.9567433789111,10.491349370163267
1344.524703406703,10.009584420859182
1346.0923691257362,9.631846606033134
1347.6597406154247,8.688156780920538
1349.22681795511,8.466399614533945
1350.7936012241446,7.611507736757023
1352.3600905018338,7.925796499665772
1353.9262858674608,7.785725093707399
1355.49218740028,7.705215544226778
1357.0577951795092,7.058228343785504
1358.6231092843448,7.857199881968365
1360.1881297939497,7.992882608330394
1361.7528567874765,8.844530626061413
1363.3172903440268,9.383226232522942
1364.8814305426802,9.437207635001435
1366.4452774624983,9.19274312281141
1368.0088311824989,8.373532280429812
1369.5720917816855,7.352473891372683
1371.1350593390173,6.5699391094995985
1372.6977339334437,5.846848483972242
1374.260115643873,5.900224918043203
1375.8222045491887,6.6483346904952505
1377.384000728241,5.999565490526869
1378.9455042598665,5.455172545679974
1380.506715222861,5.979391510409504
1382.0676336959912,6.115073372797765
1383.6282597579986,5.690027744209508
1385.1885934876032,6.109886400896989
1386.7486349634878,6.836575590098461
1388.3083842643105,6.344094085306008
1389.8678414687033,6.517383094484808
1391.4270066552554,7.027518737661463
1392.9858799025512,6.931523903491181
1394.5444612891401,6.93282179786488
1396.1027508935267,7.885127624152259
1397.6607487942053,7.871624530076559
1399.2184550696375,9.01173834889383
1400.775869798255,9.41052539718039
1402.332993058458,9.419780610831479
1403.8898249286347,10.665756942811797
1405.4463654871122,11.050082776490429
1407.0026148122247,12.371810258538646
1408.5585729822697,12.951584287700582
1410.1142400755086,15.099257064376761
1411.6696161701664,15.844807118776398
1413.2247013444646,16.83075308508505
1414.7794956765663,19.025385455782743
1416.333999244642,21.761304951460826
1417.888212126811,23.552252603569222
1419.4421344011566,24.60044882100918
1420.9957661457693,27.143664878736292
1422.5491074386666,30.01085113513478
1424.1021583578772,34.08878277645918
1425.6549189813788,36.24442011478412
1427.2073893871275,38.54367163836691
1428.7595696530532,43.61782007210046
1430.311459857061,46.06216894708176
1431.8630600770198,49.61294737912367
1433.414370390776,54.5791746691782
1434.9653908761509,57.15483243562383
1436.5161216109186,62.846695583558066
1438.0665626728603,67.78054101036084
1439.6167141396957,72.98721873930718
1441.166576089144,76.34371257723262
1442.7161485988702,78.36105034771437
1444.265431746532,76.31197752281416
1445.8144256097576,76.34882766172062
1447.3631302661322,77.90014061332101
1448.911545793226,77.68106945675106
1450.459672268584,79.12014173043093
1452.0075097697145,81.26839575655733
1453.555058374097,81.72843867133892
1455.1023181591963,85.58992295492045
1456.6492892024448,83.95397247089657
1458.1959715812345,81.99299609682889
1459.7423653729318,82.88361491768619
1461.2884706549073,81.03490740285315
1462.8342875044582,79.84978850584368
1464.3798159988899,76.42940139777478
1465.925056215463,75.5374808825128
1467.4700082314027,72.8702943761299
1469.0146721239228,69.59776517056692
1470.5590479702116,67.68403926559021
1472.1031358474143,63.018805254406196
1473.646935832657,61.73804810574568
1475.1904480030375,59.058222002541704
1476.733672435635,54.97098327723201
1478.2766092074892,53.15104429324683
1479.81925839561,47.80552315122306
1481.3616200769893,44.36453152360839
1482.9036943285867,41.633551460306464
1484.4454812273398,38.47772115472728
1485.986980850153,36.89523216957513
1487.5281932738985,33.328492933339
1489.0691185754447,31.138640829749797
1490.609756831591,28.334474088815515
1492.1501081191511,26.362560365939117
1493.6901725148878,24.397487471622178
1495.2299500955532,22.13612869621795
1496.7694409378487,20.79106792408817
1498.3086451184713,19.218072273388575
1499.8475627140713,17.667237288052622
1501.3861938012915,16.62394627652546
1502.9245384567241,14.108712066883438
1504.4625967569539,13.754761773166788
1506.0003687785397,12.679804423784113
1507.5378545979938,11.338811411433301
1509.0750542918208,9.670906526434104
1510.611967936478,10.523054130290332
1512.1485956084266,9.203690457611009
1513.6849373840587,8.734499569088772
1515.2209933397803,7.444697570104507
1516.7567635519365,8.16789673966113
1518.292248096868,7.310677568726558
1519.8274470508868,7.175221783966745
1521.3623604902577,7.473045450912807
1522.8969884912526,6.995402327439292
1524.4313311300707,6.61644763873833
1525.9653884829293,6.435121354015129
1527.499160625991,5.6450920485300395
1529.0326476354005,5.836375482527018
1530.5658495872738,5.472143556073672
1532.098766557693,5.358978018285678
1533.631398622734,5.3142925356616235
1535.163745858425,4.820304308798522
1536.6958083407724,5.072542339171936
1538.2275861457608,4.92112807667242
1539.7590793493348,4.563937248803299
1541.2902880274353,4.7553021530167765
1542.8212122559596,4.33697054913651
1544.351852110776,4.909539363273429
1545.8822076677309,4.582579595023162
1547.4122790026522,5.483338979321493
1548.9420661913175,5.514868413638513
1550.4715693094968,6.377989221551432
1552.0007884329345,6.798856069940235
1553.529723637339,6.258245978782988
1555.0583749984035,6.091472594935892
1556.5867425917747,5.168787672537487
1558.114826493081,4.299213690933525
1559.6426267779389,3.5209687441269852
1561.1701435219154,3.4834267916613135
1562.6973768005766,3.4993543112897987
1564.224326689427,3.775113173225914
1565.7509932639678,3.118485801473423
1567.2773765996737,3.2948940396372812
1568.8034767719953,3.2572744275857737
1570.3292938563386,2.967269808739406
1571.854827928099,3.4726556456212334
1573.3800790626356,3.2437865771082355
1574.9050473352856,3.213780772981982
1576.4297328213645,2.831712887673757
1577.95413559614,3.3451027265131845
1579.4782557348917,2.8097948300522644
1581.0020933128326,2.657165075311593
1582.5256484051695,2.6193629265457
1584.0489210870753,2.788376776459751
1585.5719114337132,2.85018801603899
1587.094619520191,2.6591359079475616
1588.6170454216167,2.57531774728046
1590.139189213055,2.468470218999269
1591.6610509695481,2.468927644680355
1593.1826307661174,2.431040628799879
1594.703928677743,2.57722710215056
1596.2249447794024,2.4396132496503884
1597.745679146022,2.0026950078774064
1599.266131852513,2.4405171616060364
1600.7863029737691,1.765480859585459
1602.3061925846366,2.5105180907549354
1603.8258007599582,1.796850225916858
1605.3451275745288,2.1658358673651166
1606.8641731031291,2.058693213650312
1608.382937420515,1.951510779948219
1609.9014206014012,1.9441875236495347
1611.4196227205032,1.8369440038397413
1612.9375438524708,1.5605383089066804
1614.4551840719719,1.7530472294084731
1615.9725434536128,1.8302739289118646
1617.4896220719959,1.9382957231678695
1619.006420001673,1.7694067777388383
1620.5229373172099,1.6620112109779053
1622.0391740930856,1.5314880593139135
1623.555130403823,1.9243358984536534
1625.0708063238533,1.7861140461128497
1626.5862019276371,1.43993579838526
1628.1013172895734,1.1860487991659665
1629.6161524840431,2.249287642489027
1631.1307075853938,1.5563017911688377
1632.64498266797,1.6105307806547682
1634.1589778060684,2.02702348766956
1635.6726930739646,1.480077797512562
1637.1861285459154,1.5805835307953595
1638.6992842961415,1.7505306461843706
1640.212160398849,1.4269076054270022
1641.7247569281967,1.6046034296833334
1643.2370739583396,1.4968778482052503
1644.7491115634004,1.5588927773334333
1646.2608698174652,1.6595241347052099
1647.7723487946087,1.6907113133055318
1649.2835485688665,2.023051132868798
1650.7944692142592,1.7762889844359016
1652.305110804778,1.5989553764452284
1653.8154734143784,2.2327702977535067
1655.3255571170007,1.7154551837938066
1656.83536198656,1.9244469406941453
1658.3448880969318,1.839770866746599
1659.8541355219909,2.0952519362347806
1661.3631043355542,2.041507875557586
1662.8717946114425,2.266182699262315
1664.3802064234217,1.9958466316235919
1665.888339845254,2.646145492139637
1667.396194950673,2.221005618032471
1668.9037718133718,2.4845797059028243
1670.4110705070327,2.337948705351865
1671.9180911053054,2.338380099948548
1673.4248336818214,2.269111857887078
1674.9312983101686,2.393463888862102
1676.4374850639272,2.603081622529759
1677.9433940166377,2.588064393284015
1679.4490252418302,2.782294872050153
1680.9543788129938,2.6975409117901132
1682.4594548035966,2.046787735230101
1683.964253287088,2.80709768550711
1685.468774336881,1.892425764020596
1686.9730180263605,2.0556774094741814
1688.4769844289135,2.6689939491321852
1689.9806736178589,2.5608440835800033
1691.4840856665228,2.5846008059181527
1692.9872206481834,2.422054292036931
1694.49007863612,2.6864911257231436
1695.9926597035526,2.5006056516184145
1697.4949639236945,2.3146515414807984
1698.9969913697405,2.1130913482332407
1700.4987421148387,2.1057105093716224
1702.0002162321332,1.7408341258956264
1703.501413794724,2.1997625392719744
1705.0023348757009,2.029129947264733
1706.502979548117,2.06838304993125
1708.0033478850037,1.7187851037585218
1709.5034399593596,1.8824551635123794
1711.0032558441649,1.6805172983041055
1712.5027956123931,1.9920909206487043
1714.0020593369443,1.5410414822650242
1715.5010470907373,1.8994108187669683
1716.9997589466507,2.1411234617703965
1718.4981949775263,1.7287887196531806
1719.9963552561994,1.7135293564091678
1721.494239855454,1.2386423052571431
1722.9918488480814,1.4726193368084053
1724.4891823068292,1.8703368904413298
1725.9862403044085,1.1925591425996556
1727.4830229135382,0.9511044570355381
1728.9795302068637,1.4035270129032698
1730.4757622570457,0.974850820564622
1731.971719136708,0.7566233754747822
1733.4674009184457,1.5603351106381638
1734.9628076748281,1.0456167763550739
1736.4579394783918,1.0614181388431363
1737.9527964016627,1.5455840706771589
1739.447378517141,1.3975273423829258
1740.94168589728,0.46853103812073477
1742.4357186145326,0.35927316056833697
1743.9294767413153,0.6249377369997399
1745.422960350016,0.8906999521308971
1746.9161695130113,0.35165670238898855
1748.409104302634,0.7581548563814788
1749.9017647911992,0.7973814970415314
1751.3941510509962,0.8835359278609258
1752.8862631543034,0.7194711443037031
1754.378101173334,0.7196033168076954
1755.8696651803334,0.47721593137133295
1757.3609552474713,0.7668155966985417
1758.8519714469205,0.6652173143740314
1760.3427138508032,0.5948917712681357
1761.833182531256,0.31315842840889535
1763.3233775603499,0.5481278784437147
1764.8132990101635,0.2114595710862231
1766.3029469527098,0.10966583345261652
1767.7923214600162,0.5719339628007791
1769.2814226040775,0.5955473976997739
1770.7702504568376,0.7132205325274701
1772.258805090244,0.25084885499868936
1773.747086576197,0.007840465317134839
1775.2350949865966,0.49403995609097207
1776.722830393296,0.44707054883633734
1778.210292868137,0.6040482146586754
1779.6974824829183,0.36877239660628663
1781.1843993094308,0.2903634403334831
1782.67104341944,0.45524780255734754
1784.157414884679,0.6201926353562579
1785.6435137768478,-0.04711187688797616
1787.1293401676435,0.25130942156885444
1788.6148941287183,0.4555818519333894
1790.100175731711,0.37710238836274657
1791.5851850482309,0.12572384237548212
1793.0699221498542,0.25935296272891356
1794.5543871081466,0.12576994205451103
1796.038579994652,0.23586186652655958
1797.5225008808668,0.20445108335953754
1799.0061498382731,0.12583910950518087
1800.4895269383458,0.45625036663098717
1801.9726322524973,0.5350122406509874
1803.4554658521588,0.2518165969523268
1804.9380278086994,0.30695770523068067
1806.4203181934888,0.19680380689592541
1807.9023370778484,0.21258704638487608
1809.3840845331003,0.25987620432702974
1810.8655606305267,0.0551353517994335
1812.34676544138,0.228459718038612
1813.8276990369027,0.31517455777471187
1815.3083614883033,0.24430500852487924
1816.7887528667586,0.1734094924829566
1818.2688732434376,0.11037169835375252
1819.7487226894734,0.16558785537618317
1821.2283012759806,-0.0946389522077454
1822.70760907403,0.33918498385978474
1824.1866461546963,0.6706046575869599
1825.6654125890104,-0.08680001427653738
1827.143908447985,0.10260060677457603
1828.6221338026041,0.12630077592570832
1830.1000887238258,0.09474291327565891
1831.5777732825939,0.17372711840330055
1833.0551875498227,0.5844617514979098
1834.5323315963833,0.450275860693397
1836.0092054931465,0.1343173634484596
1837.4858093109617,0.4820504507008635
1838.962143120627,0.26082908214392425
1840.4382069929368,-0.2213499933386015
1841.9140009986495,0.22929726900252856
1843.3895252085051,-0.07908248003451963
1844.8647796932219,0.2847489759779863
1846.3397645234847,-0.06328911760389039
1847.8144797699654,-0.047475514640921916
1849.2889255032978,0.10288241595030599
1850.7631017940912,0.24537982942256156
1852.2370087129475,0.04750154934260756
1853.7106463304322,0.1821225459279398
1855.184014717085,0.5623071052261319
1856.6571139434132,0.3326931448880243
1858.1299440799205,0.6417397104915403
1859.6025051970705,0.2931939105872548
1861.0747973653122,0.03962803582888594
1862.546820655051,-0.03170821894234254
1864.0185751366962,0.30128309329676367
1865.4900608806056,0.31719801297702016
1866.9612779571376,0.17449076355785775
1868.432226436588,0.21418685582974267
1869.9029063892865,0.1824887811087467
1871.3733178854707,0.4047229082491051
1872.8434609954188,-0.420671171605255
1874.3133357893291,-0.023815922054599037
1875.7829423374105,0.3811243009157565
1877.2522807098392,0
1878.7213509767626,0.3892064064582344
1880.1901532082984,0.5004995469903597
1881.658687474554,0.12713418832949
1883.1269538455929,0.1509993923039902
1884.5949523914896,0.24641237385486878
1886.0626831822603,0.27825826768446077
1887.5301462879033,0.4214393757830725
1888.9973417784015,0.29426605425062163
1890.4642697237027,0.10340963122140476
1891.9309301937392,-0.055692263077433704
1893.397323258425,0.40583190318956885
1894.8634489876354,0.0636715133041636
1896.3293074512296,0.2388117053441409
1897.7948987190277,0.023885524029073235
1899.2602228608566,-0.15130256049910898
1900.725279946489,-0.11150641771589194
1902.1900700456831,-0.09559434884550083
1903.6545932281822,0.04780588500987426
1905.118849563686,0.3267330760550438
1906.5828391218981,-0.007970551480292624
1908.0465619724673,0.03986001847244515
1909.5100181850391,0.12757529693817182
1910.9732078292222,0
1912.4361309746112,0.39881806183595536
1913.8987876907636,0.26326786366989197
1915.3611780472377,0.023937801043592548
1916.8233021135334,0.0718264811550559
1918.2851599591577,0.4230551897835871
1919.7467516535737,0.09580352167094323
1921.208077266227,0.13574636628428285
1922.6691368665372,0.43127284050297354
1924.1299305239024,0.2955555540435851
1925.5904583076913,-0.09587330352913465
1927.0507202872693,0.1678088186156934
1928.5107165319323,0.3516634192809756
1929.9704471110092,-0.23182034215671876
1931.4299120937599,0.4877108304582037
1932.8891115494403,0.07197042851509218
1934.3480455472848,0.40790662885774526
1935.8067141564877,0.4239800856277647
1937.265117446236,-0.15202050994870597
1938.723255485691,0.49615715976943253
1940.1811283439674,0.024011971046898548
1941.6387360901902,0.22415248836463525
1943.0960787934407,-0.02402070548152223
1944.5531565227755,0.5846101187735684
1946.0099693472282,0.23228460326495307
1947.4665173358226,0.12016905255148723
1948.922800557538,0.03205090633841741
1950.37881908134,-0.06411346519345162
1951.8345729761754,0.3366568742840044
1953.2900623109547,0.13629064438872435
1954.7452871545704,0.31272359600545246
1956.2002475758893,0.24862033817096488
1957.654943643775,0.6016101168014663
1959.109375427025,0.3530087303309773
1960.5635429944557,0.4894873816001612
1962.0174464148208,-0.1444651392699286
1963.4710857568896,-0.10435488682336758
1964.9244610893759,0.24086271157193043
1966.3775724809905,0.6183265756825241
1967.8304200004036,0.4337103762891517
1969.2830037162717,0.7390481579377506
1970.7353236972358,0.265141497004478
1972.187380011883,0.4500187795723644
1973.6391727288185,0.5385130763623472
1975.0907019165854,0.21705212843411714
1976.5419676437305,0.16080853974781625
1977.9929699787608,0.22517281934692987
1979.4437089901614,0.4504273745063336
1980.8941847463993,0.4987779528784842
1982.3443973159265,0.37817448132868137
1983.7943467671446,0.3782431022127117
1985.244033168455,0.5392954451234985
1986.693456588219,0.20126615168487977
1988.1426170948018,0.6039079902795942
1989.5915147565065,0.43489262647501625
1991.0401496416437,0.4269164801396736
1992.4885218184802,0.2255816877338093
1993.9366313552753,0.2659123473083476
1995.3844783202526,0.06447528911583496
1996.8320627816279,0.5723219482758903
1998.279384807566,0.4192413697001883
1999.7264444662246,0.7983157747650544
2001.1732418257545,0.3306755586116485
2002.6197769542516,0.6372708404858787
2004.0660499198113,0.5970454400956932
2005.51206079049,0.6697804434006578
2006.9578096343218,0.6618307182510854
2008.4032965193403,0.5166444092348544
2009.848521513529,0.5571081816994203
2011.2934846848564,0.26649131829422007
2012.7381861012655,0.6300026864886822
2014.182625830678,0.5574110279369164
2015.626803941004,0.646390721665312
2017.070720500114,0.2586031199148895
2018.514375575853,0.21015308922983567
2019.9577692360585,0.7033319164400966
2021.4009015485212,0.04042869414667178
2022.8437725810384,0.4690577686356722
2024.2863824013643,0.22648267981258968
2025.7287310772276,0.5582190745493062
2027.1708186763494,0.2589310734310802
2028.6126452664146,0.5017697649352628
2030.0542109150756,0.6070894166377738
2031.4955156899914,0.4452794794843971
2032.9365596587747,0.35628804936976144
2034.3773428890156,-0.02429676284816756
2035.8178654482863,0.2916139097427473
2037.2581274041406,0.9722222357584753
2038.698128824093,0.5267156503674388
2040.137869775664,0.6970113880436638
2041.5773503263101,0.37288748235065455
2043.016570543494,0.34052406365058746
2044.455530494657,0.7622631208501655
2045.894230247193,0.9894991319706865
2047.3326698684925,-0.17846653570298815
2048.7708494259236,0.6815408918898644
2050.2087689868226,0.5193631349733754
2051.646428618503,0.592505673271408
2053.08382838825,0.8686242142716561
2054.520968363348,0.27606132381196674
2055.9578486110277,0.6496734592221862
2057.3944691985225,0.53607747143548
2058.8308301930238,0.48743122631582825
2060.2669316617203,0.2600102964382494
2061.7027736717528,0.4388466549241569
2063.1383562902633,0.5283367829369762
2064.573679584341,0.37396742555838164
2066.0087436210883,0.6098396427582025
2067.4435484675614,0.6994091024208073
2068.878094190794,0.6669988959270662
2070.3123808577975,0.9355942211739299
2071.7464085355778,0.3905794137631534
2073.1801772910917,0.529005130392417
2074.613687191279,0.5698006975963582
2076.0469383030786,0.626893930315389
2077.479930693379,0.42343336952511124
2078.9126644290654,0.8388751945066584
2080.345139576982,0.5376287046897567
2081.7773562039665,0.6273466981787612
2083.2093143768166,0.554120448085041
2084.641014162322,0.09780360806209903
2086.072455627255,0.505409825286225
2087.5036388383405,0.4728880493427915
2088.934563862296,0.5219016470546153
2090.3652307658167,0.7422127795964055
2091.7956396155696,0.8320808811762579
2093.2257904782105,0.4977067564727289
2094.655683420347,0.48963592580582704
2096.085318508599,0.5876690776137484
2097.514695809531,0.04898125459272004
2098.9438153897077,0.6205411014412217
2100.372677315654,0.8329816438042388
2101.80128165388,0.3920620351699724
2103.2296284708773,0.5636907789488049
2104.6577178331017,0.5474505842581808
2106.085549807002,0.3841017216874996
2107.513124458993,0.5803433515967191
2108.9404418554764,0.44964277263033714
2110.3675020628057,0.3597790418491557
2111.7943051473567,0.6706181255311912
2113.2208511754357,1.1288045881253406
2114.6471402133598,0.8017592769532849
2116.0731723274034,0.695528733487522
2117.4989475838215,0.5892598802474291
2118.924466048863,0.6548511340475036
2120.349727788732,0.34385876694168366
2121.774732869622,1.113647964266982
2123.199481357695,0.5487341940203143
2124.6239733191073,1.1795813817228897
2126.048208819966,1.0978636481569906
2127.472187926381,0.9997274600124181
2128.8959107044375,1.213002465635461
2130.3193772201716,1.0328771861137283
2131.7425875396216,1.7299707517258045
2133.1655417288066,1.4432684986040711
2134.588239853691,1.0496498171665978
